# Matter power spectrum for a flat baryon-only Universe (Inspired by the classic figure in John Peacock's cosmology textbook)
# k [h/Mpc]	P(k) [Mpc/h]^-3
1.029181190384678100e-04 4.438005115881818483e+02
1.124092363223904090e-04 4.895534070936117246e+02
1.223056430487720159e-04 5.316968291195302072e+02
1.330733204046691774e-04 5.766512687550113014e+02
1.447889742623084935e-04 6.251115112539406482e+02
1.575360636090047321e-04 6.789245127575682091e+02
1.714053950852590128e-04 7.356323114477862646e+02
1.864957698654493403e-04 7.982058664897899689e+02
2.029146874893076452e-04 8.661019851680880492e+02
2.207791116580786655e-04 9.388868978253793784e+02
2.402163034506748173e-04 1.019711392551230119e+03
2.613647278954218207e-04 1.105926979576578560e+03
2.855894814253103625e-04 1.204536788247959521e+03
3.094111597551952881e-04 1.301456789119812584e+03
3.366514362911629055e-04 1.409496895167942284e+03
3.662899219490738903e-04 1.529389986021639288e+03
3.985377528745168759e-04 1.660264561797693659e+03
4.336246534469279904e-04 1.798939696917678248e+03
5.212734406762158362e-04 2.160390212509737466e+03
5.671658793526685978e-04 2.327620980953357048e+03
6.170986465080475700e-04 2.518469868889826557e+03
6.714274489796536339e-04 2.733983033424868609e+03
7.305393097105849706e-04 2.959547047414679128e+03
7.948553247911530843e-04 3.191649445644238767e+03
8.648336632277122977e-04 3.484443971635061644e+03
9.491280680745486399e-04 3.790882954213045650e+03
1.023815221316662230e-03 4.065817848836066332e+03
1.113950980390331037e-03 4.392963580953693054e+03
1.212022209551403239e-03 4.750913921535544432e+03
1.318727540354715623e-03 5.138031006608109237e+03
1.434827111240525102e-03 5.546212832556383546e+03
1.561147982544648215e-03 5.986821944914605410e+03
1.698590028241159667e-03 6.465484718622518812e+03
1.848132346388749658e-03 6.946267902864082316e+03
2.238803711794852373e-03 8.255787550212146016e+03
2.435905950341432213e-03 8.852974222439348523e+03
2.650360890348797335e-03 9.506807543433242245e+03
2.883696247839897739e-03 1.019448739539618327e+04
3.137574237564126102e-03 1.092675353682376590e+04
3.413803414142620347e-03 1.168401795761212270e+04
3.714351555697213356e-03 1.248197792285043397e+04
4.041359681742333169e-03 1.330301004154875227e+04
4.307581502369581261e-03 1.392526351406208596e+04
4.751154340192956758e-03 1.483553222558689231e+04
5.240470608985870089e-03 1.595961359812891169e+04
5.780073238592201706e-03 1.692566306826702566e+04
6.423490867953031945e-03 1.816470030771647725e+04
7.031760542496280283e-03 1.919255775505789279e+04
7.815390497225701769e-03 2.069982125502726922e+04
8.624084008338873605e-03 2.135956663593141639e+04
9.434980524323097889e-03 2.240548591634032709e+04
1.038321992192484111e-02 2.353579559824978423e+04
1.147733323120223026e-02 2.406682794317620210e+04
1.265860912662861854e-02 2.472473765573994751e+04
1.396133649606204515e-02 2.522255094855892821e+04
1.539780018621912487e-02 2.531143511305587526e+04
1.698185150960743184e-02 2.516346831079327967e+04
1.872834565000706247e-02 2.449388425154174547e+04
2.065410927978337391e-02 2.353656222414162767e+04
2.277701892603271536e-02 2.196327256750140077e+04
2.511728246342184029e-02 1.997319250222674600e+04
2.769659935121649222e-02 1.747400865769299344e+04
3.053868214385509899e-02 1.450177561952596625e+04
3.352083837174402170e-02 1.149442005539370803e+04
3.630457941584430692e-02 8.818002684050945390e+03
3.879708842690635096e-02 6.654740273717337914e+03
4.109271706475604163e-02 4.972299423089878474e+03
4.256658973077044605e-02 3.742235464319790026e+03
4.429086282300888355e-02 2.857022104975507773e+03
4.587946918284298986e-02 2.151167183145595118e+03
4.731381148253403779e-02 1.615353909870452753e+03
4.857645789011998116e-02 1.216265115354798354e+03
4.971224670370631010e-02 8.848113815475085175e+02
5.158226620574848237e-02 4.983918488984326700e+02
5.293295578494003339e-02 3.162576610399177071e+02
5.391588815717605204e-02 1.736298491834073445e+02
5.483679431805161403e-02 8.931656379429094272e+01
5.570721274280205498e-02 5.761234034499952372e+01
5.586863169090394016e-02 4.065768378815216266e+01
5.621508226108611062e-02 2.695455567239191907e+01
5.726437530870864129e-02 3.944498169953472577e-02
5.768630472108481760e-02 1.083824327761391970e+01
6.022268459064952784e-02 3.657698757228917685e+01
6.069768067904015435e-02 4.713858285547321003e+01
6.108885834604145526e-02 6.852175956718492955e+01
6.157402319523334888e-02 9.981920884907567881e+01
6.263941180862950264e-02 1.421662811587989950e+02
6.393803439021858437e-02 2.066562706390941742e+02
6.585665551292628483e-02 3.050644509494383669e+02
6.818884341339542798e-02 4.228127505132447368e+02
6.993339160440061042e-02 5.120448707756738713e+02
7.231819130096746318e-02 5.733591774442331825e+02
7.485061710420820580e-02 6.096289686861657628e+02
7.771601029388608417e-02 5.836146726180470523e+02
8.048601379660137722e-02 5.147251778499847887e+02
8.440522857697616010e-02 3.707156431496983373e+02
8.647501672501320402e-02 2.735820353596801056e+02
8.822360159294732884e-02 1.928763582820204761e+02
9.032767008960919386e-02 1.348722543844620816e+02
9.123431822909724986e-02 9.939095400576928796e+01
9.273656112633076043e-02 6.862003386678112804e+01
9.347420880687162814e-02 4.734169315475934070e+01
9.396972533496203428e-02 3.391543841135555937e+01
9.482571455299745877e-02 2.366359628433688300e+01
9.854562629037416643e-02 1.439367381028723858e-01
1.026172383142728850e-01 1.463796357139996829e+01
1.041727617657939170e-01 3.256805340945645355e+01
1.049496527265572354e-01 4.963450468722464848e+01
1.059310028174381274e-01 6.764360021020473823e+01
1.080834751081777567e-01 9.207383485624875163e+01
1.103554598348915894e-01 1.303120278924044726e+02
1.128308912897537375e-01 1.704597421630431029e+02
1.156395933397515313e-01 2.004984642460613884e+02
1.191833496859930480e-01 2.140524195788958082e+02
1.228076975834179185e-01 1.919427251358588933e+02
1.262659169797379632e-01 1.635746867784201584e+02
1.299982890684210635e-01 1.169955982381408433e+02
1.314533328676545931e-01 8.474707313144723742e+01
1.330771538577426860e-01 6.048920060407424160e+01
1.347233051761469458e-01 4.373536694881280340e+01
1.357873839361176949e-01 3.221985941345167248e+01
1.373799491084176649e-01 2.333164988365261650e+01
1.378599397132171944e-01 1.544145031593943607e+01
1.388350882485740179e-01 9.658400960748416253e+00
1.440198850306873279e-01 1.654922715285093382e+00
1.479263446421266170e-01 8.737938004560376726e+00
1.479812266554208222e-01 1.160508686936627321e+01
1.496663871035754101e-01 2.020809972242643937e+01
1.513052035217773428e-01 2.971370669966034939e+01
1.525058623671241009e-01 4.306891925840025692e+01
1.553105843133825437e-01 5.933011037227657170e+01
1.582456771624306258e-01 8.214726435810271710e+01
1.633145416652378168e-01 9.763624093346082589e+01
1.700738600581324089e-01 8.613248191647844010e+01
1.754845719885823052e-01 5.838118629725397568e+01
1.776049720794839470e-01 3.996872170344288833e+01
1.789127817104382290e-01 2.825999516937213940e+01
1.804447144056325891e-01 2.118680075750194902e+01
1.823257548992467669e-01 1.563326912013080694e+01
1.827045997769105035e-01 1.038452887213410136e+01
1.845956011371127636e-01 7.379475179615802460e+00
1.887710481284577968e-01 5.213220219960973401e-01
1.978630232535031341e-01 7.680527232282745587e+00
1.979364322267251342e-01 1.020071161945251426e+01
1.980054169805489095e-01 1.331682982066411647e+01
1.989611514150439742e-01 1.759163502866027784e+01
2.008498478691096434e-01 2.670079521765046948e+01
2.101738060576034961e-01 4.122093886873974355e+01
2.180592805150239344e-01 4.233454702700402805e+01
2.234797824394696431e-01 2.535811842196535082e+01
2.253555712152338908e-01 1.672498942915738240e+01
2.279019535934832807e-01 1.210972584590044931e+01
2.288953808279300395e-01 7.996988458697000368e+00
2.339497852301296033e-01 7.399672909658491782e-02
2.442393324353770989e-01 9.687758402918326794e+00
2.443695775487033095e-01 7.614764997950788761e+00
2.465516391433087429e-01 1.330048095827939747e+01
2.511546271470023739e-01 1.959842715297811111e+01
2.594986707816550608e-01 2.525552857208036173e+01
2.677980970517883086e-01 1.987573380512804277e+01
2.710692039788155094e-01 1.478979301658387513e+01
2.735416785956261698e-01 1.058365297913048764e+01
2.756464316545111926e-01 4.933567774988162569e+00
2.826070735033713310e-01 4.175928132189671294e-01
2.930849136882257011e-01 7.484924916996967603e+00
2.973290030817787311e-01 1.127485720827597504e+01
2.996516384968790359e-01 1.371950123568060853e+01
3.065541707220191814e-01 1.598181878342024120e+01
3.147690989331498601e-01 1.282862985549502532e+01
3.167873474125930122e-01 9.687758402918326794e+00
3.207221983798004827e-01 7.280875535327611559e+00
3.223498520737742568e-01 4.840016689606368772e+00
3.248334351766177241e-01 2.792868220780310828e+00
3.286181629559815631e-01 1.172978038536188067e-01
3.447888912248066040e-01 4.677099899120151782e+00
3.453032244245008986e-01 5.611523001006944789e+00
3.506591096517179262e-01 7.289825138920195791e+00
3.561273753937067577e-01 8.575767974166238261e+00
3.667910219460149279e-01 6.395859710810527510e+00
3.697098473898543514e-01 3.113619605297521353e+00
3.698960725711791797e-01 4.243347266475509194e+00
3.713495084553530834e-01 2.329298892961798817e+00
3.801847419820550966e-01 1.194434668137580452e-01
3.920668029437635038e-01 2.792868220780310828e+00
3.951858144470283829e-01 3.789886483165238129e+00
4.054568179024075070e-01 4.872229994962098409e+00
4.132579748108036743e-01 3.471208191765099205e+00
4.148773626720305696e-01 2.489819220680517642e+00
4.253443045015181667e-01 8.674170235090128411e-02
4.385890990174133863e-01 1.584303286588875981e+00
4.420530092568766833e-01 2.058138926665193047e+00
4.542620537751222431e-01 2.861456508578194669e+00
4.624366752242633494e-01 1.672480265183077019e+00
4.624685398281311310e-01 2.058138926665193047e+00
4.724822269168670319e-01 6.901383604630924318e-02
4.907715537275932349e-01 1.117694648710629846e+00
4.997770658592450843e-01 1.618830280312597347e+00
5.136993255245622114e-01 1.101339264953817620e+00
5.240453836073052374e-01 8.737669658198318756e-02
5.516012056780783546e-01 9.900101478114669007e-01
5.723092486765585241e-01 4.037274913027522061e-02
5.995896700873063478e-01 5.897043225615230533e-01
6.213521274557662899e-01 2.685375298977024303e-02
6.508869294981824982e-01 3.226639962919233828e-01
6.651929127131632757e-01 3.806450104061753076e-02
6.991410688040329280e-01 1.873304067875816159e-01
7.069093653964209079e-01 6.149693549928310354e-02
7.440243398271995101e-01 1.159867338131883724e-01
