# Matter power spectrum for best fit Lambda+CDM cosmology
# k [h/Mpc]	P(k) [Mpc/h]^-3
1.029181190384678100e-04 4.438005115881818483e+02
1.124092363223904090e-04 4.895534070936117246e+02
1.223056430487720159e-04 5.316968291195302072e+02
1.330733204046691774e-04 5.766512687550113014e+02
1.447889742623084935e-04 6.251115112539406482e+02
1.575360636090047321e-04 6.789245127575682091e+02
1.714053950852590128e-04 7.356323114477862646e+02
1.864957698654493403e-04 7.982058664897899689e+02
2.029146874893076452e-04 8.661019851680880492e+02
2.207791116580786655e-04 9.388868978253793784e+02
2.402163034506748173e-04 1.019711392551230119e+03
2.613647278954218207e-04 1.105926979576578560e+03
2.855894814253103625e-04 1.204536788247959521e+03
3.094111597551952881e-04 1.301456789119812584e+03
3.366514362911629055e-04 1.409496895167942284e+03
3.662899219490738903e-04 1.529389986021639288e+03
3.985377528745168759e-04 1.660264561797693659e+03
4.336246534469279904e-04 1.798939696917678248e+03
5.212734406762158362e-04 2.160390212509737466e+03
5.671658793526685978e-04 2.327620980953357048e+03
6.170986465080475700e-04 2.518469868889826557e+03
6.714274489796536339e-04 2.733983033424868609e+03
7.305393097105849706e-04 2.959547047414679128e+03
7.948553247911530843e-04 3.191649445644238767e+03
8.648336632277122977e-04 3.484443971635061644e+03
9.491280680745486399e-04 3.790882954213045650e+03
1.023815221316662230e-03 4.065817848836066332e+03
1.113950980390331037e-03 4.392963580953693054e+03
1.212022209551403239e-03 4.750913921535544432e+03
1.318727540354715623e-03 5.138031006608109237e+03
1.434827111240525102e-03 5.546212832556383546e+03
1.561147982544648215e-03 5.986821944914605410e+03
1.698590028241159667e-03 6.465484718622518812e+03
1.848132346388749658e-03 6.946267902864082316e+03
2.238803711794852373e-03 8.255787550212146016e+03
2.435905950341432213e-03 8.852974222439348523e+03
2.650360890348797335e-03 9.506807543433242245e+03
2.883696247839897739e-03 1.019448739539618327e+04
3.137574237564126102e-03 1.092675353682376590e+04
3.413803414142620347e-03 1.168401795761212270e+04
3.714351555697213356e-03 1.248197792285043397e+04
4.041359681742333169e-03 1.330301004154875227e+04
4.397157305199328112e-03 1.419813296504974460e+04
4.788358376144993128e-03 1.508926637058896449e+04
5.205482592785562815e-03 1.597590666319919364e+04
5.663768536456227978e-03 1.684031294047885967e+04
6.162401556967988733e-03 1.782423593951760267e+04
6.704933774197321429e-03 1.873847549535685903e+04
7.295230033417548880e-03 1.964391134063826757e+04
8.066176009988929377e-03 2.085848856940052428e+04
8.965089151220561117e-03 2.191660967305541999e+04
9.914976991492159900e-03 2.279084259969742925e+04
1.002514068652411022e-02 2.298320041908765052e+04
1.066225532325839644e-02 2.347038809560491427e+04
1.133985967211081046e-02 2.391159180602151901e+04
1.206052692272867669e-02 2.430385447989914610e+04
1.282699379531104106e-02 2.461554750886464535e+04
1.364217093325164123e-02 2.490193350243751775e+04
1.450915395625190611e-02 2.501450941548755873e+04
1.543123521587802874e-02 2.515716426300152671e+04
1.641191629820349177e-02 2.512272432656670935e+04
1.745492132101567409e-02 2.505884244017829769e+04
1.856421107608246038e-02 2.484857021891839395e+04
1.974399807018376723e-02 2.452441772580598627e+04
2.095176730163215637e-02 2.373973829302945887e+04
2.233326937578753585e-02 2.344341686874487277e+04
2.375258639590380541e-02 2.252010402644150236e+04
2.526210341180644067e-02 2.199230350018302488e+04
2.686755278569821770e-02 2.127574863203841596e+04
2.857503118108963014e-02 2.031797675686486036e+04
3.039102271476285672e-02 1.931225418585750231e+04
3.232242358008208943e-02 1.827016122801669189e+04
3.437656823515681387e-02 1.724369137865526500e+04
3.656125725530731674e-02 1.627489153770256962e+04
3.888478695560126236e-02 1.534246671504099504e+04
4.135598089595259041e-02 1.458302765991791057e+04
4.398422338842282453e-02 1.361879205581394490e+04
4.677949513396786885e-02 1.288391941178799425e+04
4.975241112396028981e-02 1.223178206845695968e+04
5.291426095041763811e-02 1.170865185033096350e+04
5.627705167801363983e-02 1.122108430826432414e+04
5.985355344067825462e-02 1.075381988145943978e+04
6.365734793593888496e-02 1.026971441418418544e+04
6.770288000115880223e-02 9.830498124070712947e+03
7.200551246753256196e-02 9.083839276837263242e+03
7.658158450014598828e-02 8.384025367069109052e+03
8.144847364564522518e-02 7.584947093438635420e+03
8.662466182313996454e-02 6.789777702175992999e+03
9.212980550894042664e-02 6.070825935251541523e+03
9.798481038165315904e-02 5.415249320598165468e+03
1.042119107110980047e-01 4.957082829849658083e+03
1.108347537925257892e-01 4.591363126187668968e+03
1.178784897467733128e-01 4.348723824333713310e+03
1.253698670273689919e-01 4.099575740531433439e+03
1.333373339972775407e-01 3.743907277151694416e+03
1.418111469610184305e-01 3.300562894914435219e+03
1.508234850624070034e-01 2.896061917985469790e+03
1.706028084139926682e-01 2.328874934656967525e+03
1.816143713112104430e-01 2.195539857318222403e+03
1.920246439572685371e-01 2.039031742819832061e+03
2.052399889745060713e-01 1.789936570690289727e+03
2.182833372034853336e-01 1.540748818986518472e+03
2.321556122603816441e-01 1.364274194411818144e+03
2.469094938462950972e-01 1.229705765366800279e+03
2.626010095463776617e-01 1.086128919338974583e+03
2.792897475935245954e-01 9.427620237350705565e+02
3.800563598770406726e-01 5.228649477018841480e+02
4.572185173034762351e-01 3.569817301871353834e+02
4.862755269424091642e-01 3.128636050571134319e+02
5.171791586607293878e-01 2.745205593644780038e+02
5.500467684130390111e-01 2.403107260627947710e+02
5.850031703232292379e-01 2.103640076885997701e+02
6.221811106637471500e-01 1.832848707889400828e+02
6.617217719570411827e-01 1.602559353971591065e+02
7.037753091135104944e-01 1.397912794426839014e+02
7.485014196419284005e-01 1.216534659732500501e+02
7.960699500976949894e-01 1.059936062110980259e+02
8.466615410719080526e-01 9.234956413082132087e+01
9.004683131705796262e-01 8.008421683118318413e+01
9.576945965889847034e-01 6.944788365626385485e+01
9.959905973340412721e-01 6.375813232754155990e+01
1.000000000000001998e+00 6.360558177456509554e+01
1.152955017080978584e+00 4.600847767699802660e+01
1.381261484535996731e+00 2.996355049096787582e+01
1.603972724571586683e+00 2.091339649140669721e+01
1.859035739908427187e+00 1.413014314733757359e+01
2.120779610426058337e+00 1.043783456618024275e+01
2.632379580678874120e+00 6.035882923205065254e+00
3.262373829492511312e+00 3.604134498009460952e+00
4.066511164661469557e+00 2.049404917397280812e+00
5.042179233737342336e+00 1.203372314860220671e+00
6.268455640284669173e+00 6.869799145650071770e-01
7.792966947962224111e+00 3.895370155690350278e-01
9.688244974048160429e+00 2.213773592300088411e-01
1.204446153870999758e+01 1.243995437550145383e-01
1.497371857813879181e+01 7.006226117782682339e-02
1.861538162886708747e+01 3.928167133249847037e-02
2.314271043495438818e+01 2.197434752785771411e-02
2.877110214305834290e+01 1.218212108316428510e-02
3.576833927265641933e+01 6.768767736139076965e-03
4.446733003005709151e+01 3.744007914419092680e-03
5.528194711331257594e+01 2.066255998191381029e-03
6.872671857233994785e+01 1.137762772316474073e-03
8.544130755814447298e+01 6.222716003115508817e-04
1.062209456364689260e+02 3.441970366401735050e-04
1.320542675944827238e+02 1.886753503943769709e-04
1.641703478106496732e+02 1.031913814425586729e-04
2.040971760415549454e+02 5.643800942606292775e-05
2.537343547336700738e+02 3.072843166498112513e-05
3.154434765868775230e+02 1.684412413323859689e-05
3.921604822715473802e+02 9.129722697631077323e-06
4.875353439528062722e+02 4.959598465822325590e-06
6.061057203581138992e+02 2.694234836789670736e-06
7.535128453915508544e+02 1.466912315186490587e-06
9.367699216476655693e+02 7.879419085305411903e-07
1.164595788208195927e+03 4.222838462166095868e-07
1.447829737665708763e+03 2.241381034216617045e-07
1.799947218162541958e+03 1.248999044556237961e-07
2.237700956049246997e+03 6.565597971060994552e-08
2.781918001915273180e+03 3.562077334462920713e-08
3.458490621125669804e+03 1.905345785062420023e-08
4.299608172555516830e+03 1.009439304973142403e-08
5.345288584732155869e+03 5.540042926266006060e-09
6.645282292568917910e+03 2.984440249893195847e-09
8.261439218466963212e+03 1.550730095723925713e-09
1.027065141186648725e+04 8.228249870847230679e-10
1.276851134948484469e+04 4.399850935750166467e-10
1.587385994753520208e+04 2.325570991531584181e-10
1.966945664289731940e+04 1.274733301874580712e-10
2.491448455269896294e+04 6.824747330877767441e-11
3.050066979500453817e+04 3.702353403190552243e-11
3.791854409491950355e+04 1.933436489442859811e-11
4.726502570482113515e+04 1.033563031068252489e-11
7.285820817173358228e+04 3.079621471332511185e-12
9.057759051865743822e+04 1.613651840102254415e-12
1.228959934660555300e+05 6.869253082349245889e-13
1.740394074514734966e+05 2.530319969202444923e-13
2.689875323822964565e+05 7.271421166779050236e-14
3.344062827529173810e+05 3.825058459602138631e-14
5.168434099382024724e+05 1.078583492788385171e-14
6.425416150408604881e+05 5.793537398376659489e-15
7.988100827457233099e+05 3.111958954574356664e-15
9.930836125776135596e+05 1.645377168845153036e-15
1.234605174461888848e+06 8.838030830135987600e-16
1.534865662370342063e+06 4.683460866470302645e-16
1.908150597659981111e+06 2.527065479225011299e-16
2.372219792660652660e+06 1.333117178425050909e-16
2.949152310929767787e+06 7.225659266219741897e-17
3.666396924927170854e+06 3.794632777088581932e-17
7.044761785364502110e+06 5.947559218698038664e-18
8.758073583036473021e+06 3.102356623850908866e-18
1.088806906789003313e+07 1.681515492338756040e-18
